ts,height,velocity,acceleration
-0.75,-0.13427084684371948,0.012019549496471882,-0.0006714612245559692
-0.74,-0.126114621758461,0.020326433703303337,-0.0005419999361038208
-0.73,-0.11804406344890594,0.028460051864385605,-0.0004152655601501465
-0.72,-0.11005629599094391,0.036425136029720306,-0.0002911686897277832
-0.71,-0.10215453803539276,0.04412521794438362,-0.0097036212682724
-0.7,-0.09089919924736023,0.05531110614538193,0.000004470348358154297
-0.69,-0.08320429176092148,0.06269960105419159,0.00011952221393585205
-0.68,-0.07215508818626404,0.07348296046257019,0.0002874135971069336
-0.67,-0.05951019749045372,0.08571236580610275,-0.009054601192474365
-0.66,-0.04187222570180893,0.10298269987106323,-0.008784264326095581
-0.65,-0.024426281452178955,0.11987839639186859,-0.008519798517227173
-0.64,-0.0071716345846652985,0.13649886846542358,0.001272737979888916
-0.63,0.009892469272017479,0.1527528464794159,0.0015256404876708984
-0.62,0.0267663411796093,0.16864438354969025,0.001772850751876831
-0.61,0.03831809014081955,0.17886805534362793,0.0019317716360092163
-0.6,0.05299575626850128,0.19222140312194824,0.0021394044160842896
-0.59,0.06937354803085327,0.20719753205776215,0.002372264862060547
-0.58,0.08369273692369461,0.21989133954048157,0.00256955623626709
-0.57,0.0875607505440712,0.22164364159107208,0.002596437931060791
-0.56,0.0913667157292366,0.22331389784812927,0.0026220381259918213
-0.55,0.09511110186576843,0.2249034196138382,0.0026463866233825684
-0.54,0.10245855897665024,0.2302042692899704,0.0027285218238830566
-0.53,0.10970748215913773,0.2353491485118866,0.002808213233947754
-0.52,0.1168583482503891,0.24034014344215393,0.002885490655899048
-0.51,0.12391213327646255,0.24527469277381897,0.012494280934333801
-0.5,0.1152246817946434,0.23387403786182404,0.0123148113489151
-0.49,0.12050585448741913,0.23704060912132263,0.012362197041511536
-0.48,0.1257098913192749,0.2400950938463211,0.012407839298248291
-0.47,0.1325800120830536,0.2448420524597168,0.012479826807975769
-0.46,0.1376132220029831,0.24764025211334229,0.01252146065235138
-0.45,0.1390821933746338,0.24672259390354156,0.012505218386650085
-0.44,0.14051209390163422,0.24577383697032928,0.012488499283790588
-0.43,0.14539198577404022,0.2484038770198822,0.012527510523796082
-0.42,0.15019769966602325,0.2509303689002991,0.012564897537231445
-0.41,0.1549297571182251,0.25335487723350525,0.012600690126419067
-0.4,0.1663050502538681,0.26253247261047363,0.003209233283996582
-0.39,0.17753727734088898,0.27146854996681213,0.0033478885889053345
-0.38,0.18172454833984375,0.2730253040790558,0.00337161123752594
-0.37,0.1893017739057541,0.27807319164276123,0.0034496933221817017
-0.36,0.19677327573299408,0.28296026587486267,0.003525257110595703
-0.35,0.20067918300628662,0.28410881757736206,0.003542587161064148
-0.34,0.20451636612415314,0.28517454862594604,0.003558635711669922
-0.33,0.19782811403274536,0.2753404676914215,0.003404945135116577
-0.32,0.1877947598695755,0.2621459364891052,0.003198951482772827
-0.31,0.17783761024475098,0.24916471540927887,0.002996310591697693
-0.3,0.1662180870771408,0.23450115323066711,-0.006764888763427734
-0.29,0.15643154084682465,0.22188329696655273,-0.006960317492485046
-0.28,0.14672179520130157,0.20947350561618805,-0.007152467966079712
-0.27,0.14921244978904724,0.2098119556903839,-0.007146090269088745
-0.26,0.1516554206609726,0.21009762585163116,-0.00714053213596344
-0.25,0.15230968594551086,0.20852991938591003,-0.007163837552070618
-0.24,0.1529352068901062,0.2069484442472458,-0.007187351584434509
-0.23,0.1552734375,0.20706012845039368,-0.016715943813323975
-0.22,0.15582387149333954,0.2054159790277481,-0.007207497954368591
-0.21,0.1563478410243988,0.2039509266614914,0.011835604906082153
-0.2,0.15684376657009125,0.20256662368774414,0.02134460210800171
-0.19,0.15731550753116608,0.20107652246952057,0.01178567111492157
-0.18,0.1543247401714325,0.1960194855928421,0.011705085635185242
-0.17,0.15478253364562988,0.19429711997509003,-0.01691979169845581
-0.16,0.1517912745475769,0.18930868804454803,0.01160140335559845
-0.15,0.14881007373332977,0.18390725553035736,-0.036144599318504333
-0.14,0.14583982527256012,0.1791413128376007,0.020979300141334534
-0.13,0.14288091659545898,0.17386656999588013,-0.036298587918281555
-0.12,0.13993091881275177,0.16865485906600952,-0.03637409210205078
-0.11,0.1473628729581833,0.17423684895038605,-0.036281511187553406
-0.1,0.14432752132415771,0.16950224339962006,0.020842894911766052
-0.09,0.14138415455818176,0.17524880170822144,1.059921383857727
-0.08,0.1385643482208252,0.18248561024665833,1.202849268913269
-0.07,0.1359301507472992,0.20140954852104187,2.365866184234619
-0.06,0.1341240257024765,0.34058964252471924,14.387571334838867
-0.05,0.13464178144931793,0.6739267110824585,33.80729293823242
-0.04,0.13907749950885773,1.137042760848999,46.79188537597656
-0.03,0.14806745946407318,1.6221767663955688,49.013118743896484
-0.02,0.16176354885101318,2.140828847885132,52.397438049316406
-0.01,0.18030144274234772,2.6620633602142334,52.69289016723633
0,0.2035863697528839,3.1926794052124023,53.68427658081055
0.01,0.23819682002067566,3.7365763187408447,54.3897590637207
0.02,0.2783479690551758,4.311169624328613,57.45956039428711
0.03,0.32441815733909607,4.921417713165283,61.02509689331055
0.04,0.3768869936466217,5.567515850067139,64.60971069335938
0.05,0.43597179651260376,6.245932579040527,67.84156799316406
0.06,0.5018984079360962,6.925973415374756,68.0036392211914
0.07,0.5746331810951233,7.609160423278809,68.31824493408203
0.08,0.6541382670402527,8.29319953918457,68.40404510498047
0.09,0.740490734577179,8.980574607849121,68.73772430419922
0.1,0.833802342414856,9.677583694458008,69.70060729980469
0.11,0.9341080784797668,10.381645202636719,70.40608978271484
0.12,1.0414713621139526,11.091521263122559,70.98764038085938
0.13,1.1559704542160034,11.811405181884766,71.98865509033203
0.14,1.2776243686676025,12.532995223999023,72.1602554321289
0.15,1.4064935445785522,13.259346008300781,72.63693237304688
0.16,1.5426366329193115,13.989030838012695,72.97061157226562
0.17,1.6861240863800049,14.723772048950195,73.47588348388672
0.18,1.836982011795044,15.460803985595703,73.70469665527344
0.19,1.9954050779342651,16.211118698120117,75.02985382080078
0.2,2.161329984664917,16.964956283569336,75.3825912475586
0.21,2.3348593711853027,17.724050521850586,75.90693664550781
0.22,2.5160374641418457,18.484878540039062,76.07854461669922
0.23,2.704824209213257,19.250085830688477,76.51708221435547
0.24,2.901308536529541,20.024925231933594,77.47997283935547
0.25,3.105499029159546,20.80013084411621,77.51810455322266
0.26,3.3174304962158203,21.578187942504883,77.80410766601562
0.27,3.537034034729004,22.356393814086914,77.82317352294922
0.28,3.764362335205078,23.13514518737793,77.88037109375
0.29,3.9995083808898926,23.919614791870117,78.45238494873047
0.3,4.242467880249023,24.704069137573242,78.45238494873047
0.31,4.493256568908691,25.492033004760742,78.80513000488281
0.32,4.751912593841553,26.28017807006836,78.8241958618164
0.33,5.018406391143799,27.069059371948242,78.90045928955078
0.34,5.292788982391357,27.86335563659668,79.44387817382812
0.35,5.575131893157959,28.657941818237305,79.47247314453125
0.36,5.865538120269775,29.45952796936035,80.16842651367188
0.37,6.164146900177002,30.27737808227539,81.78912353515625
0.38,6.470940113067627,31.10026741027832,82.29439544677734
0.39,6.785953521728516,31.927997589111328,82.78060913085938
0.4,7.109327793121338,32.76518630981445,83.72442626953125
0.41,7.441149711608887,33.60327911376953,83.81022644042969
0.42,7.781309127807617,34.442386627197266,83.91510009765625
0.43,8.129846572875977,35.28167724609375,83.93416595458984
0.44,8.48685359954834,36.129852294921875,84.82078552246094
0.45,8.852295875549316,36.979515075683594,84.97332000732422
0.46,9.22620677947998,37.830204010009766,85.07819366455078
0.47,9.60867977142334,38.68311309814453,85.2974624633789
0.48,9.999785423278809,39.550819396972656,86.77516174316406
0.49,10.39954662322998,40.424400329589844,87.3662338256836
0.5,10.807994842529297,41.29851150512695,87.4234390258789
0.51,11.225118637084961,42.173614501953125,87.52831268310547
0.52,11.650960922241211,43.05125427246094,87.78571319580078
0.53,12.085616111755371,43.93461990356445,88.35772705078125
0.54,12.529197692871094,44.81805419921875,88.35772705078125
0.55,12.981544494628906,45.703617095947266,88.57699584960938
0.56,13.442791938781738,46.60914993286133,90.57903289794922
0.57,13.913228988647461,47.53843307495117,92.95288848876953
0.58,14.392899513244629,48.4676628112793,92.95288848876953
0.59,14.881796836853027,49.39683151245117,92.95288848876953
0.6,15.380139350891113,50.32612991333008,92.95288848876953
0.61,15.887674331665039,51.25533676147461,92.95288848876953
0.62,16.404558181762695,52.180789947509766,92.57154083251953
0.63,16.930606842041016,53.109962463378906,92.95288848876953
0.64,17.465848922729492,54.03904342651367,92.95288848876953
0.65,18.010278701782227,54.9680290222168,92.95288848876953
0.66,18.56395149230957,55.89876937866211,93.13402557373047
0.67,19.12685203552246,56.8318977355957,93.38188934326172
0.68,19.699111938476562,57.765621185302734,93.43909454345703
0.69,20.280654907226562,58.70175552368164,93.68696594238281
0.7,20.87159538269043,59.64029312133789,93.92530822753906
0.71,21.4720401763916,60.57893753051758,93.92530822753906
0.72,22.081756591796875,61.51747131347656,93.92530822753906
0.73,22.700740814208984,62.45589065551758,93.92530822753906
0.74,23.329021453857422,63.394222259521484,93.92530822753906
0.75,23.966615676879883,64.33248138427734,93.92530822753906
0.76,24.61357879638672,65.27072143554688,93.92530822753906
0.77,25.269975662231445,66.20843505859375,93.86810302734375
0.78,25.935705184936523,67.14505767822266,93.76322937011719
0.79,26.610692977905273,68.08157348632812,93.76322937011719
0.8,27.294981002807617,69.0190658569336,93.86810302734375
0.81,27.98848533630371,69.9575424194336,93.98250579833984
0.82,28.69146156311035,70.89676666259766,94.04924011230469
0.83,29.403844833374023,71.83618927001953,94.06830596923828
0.84,30.125389099121094,72.77538299560547,94.06830596923828
0.85,30.85613250732422,73.71466827392578,94.09690856933594
0.86,31.5960693359375,74.65546417236328,94.26850891113281
0.87,32.345149993896484,75.59647369384766,94.31617736816406
0.88,33.103946685791016,76.53778076171875,94.31617736816406
0.89,33.8722038269043,77.48017883300781,94.4210433959961
0.9,34.64982223510742,78.42298889160156,94.46871948242188
0.91,35.43659973144531,79.36619567871094,94.53545379638672
0.92,36.232505798339844,80.31043243408203,94.6689224243164
0.93,37.03759002685547,81.25564575195312,94.79285430908203
0.94,37.8518180847168,82.20054626464844,94.79285430908203
0.95,38.675540924072266,83.14578247070312,94.82145690917969
0.96,39.509033203125,84.09171295166016,94.8595962524414
0.97,40.35161590576172,85.0373764038086,94.86912536621094
0.98,41.203758239746094,85.98313903808594,94.86912536621094
0.99,42.06501007080078,86.92988586425781,95.00259399414062
1,42.935791015625,87.87699127197266,95.03119659423828
1.01,43.81600570678711,88.83164978027344,95.79387664794922
1.02,44.70541763305664,89.79498291015625,96.6995620727539
1.03,45.604225158691406,90.75809478759766,96.6995620727539
1.04,46.51231002807617,91.72086334228516,96.6995620727539
1.05,47.429874420166016,92.6834945678711,96.6995620727539
1.06,48.35683059692383,93.64523315429688,96.63282775878906
1.07,49.293209075927734,94.6011962890625,96.07035064697266
1.08,50.23994827270508,95.55765533447266,96.041748046875
1.09,51.196205139160156,96.51436614990234,96.07035064697266
1.1,52.1617317199707,97.4708023071289,96.07035064697266
1.11,53.136348724365234,98.42678833007812,96.07035064697266
1.12,54.1202392578125,99.38250732421875,96.07035064697266
1.13,55.114070892333984,100.34581756591797,96.7948989868164
1.14,56.117149353027344,101.30924224853516,96.84256744384766
1.15,57.129337310791016,102.27464294433594,97.09043884277344
1.16,58.151206970214844,103.2407455444336,97.15717315673828
1.17,59.182167053222656,104.2068862915039,97.2143783569336
1.18,60.222190856933594,105.17247772216797,97.2143783569336
1.19,61.27181625366211,106.13746643066406,97.15717315673828
1.2,62.330501556396484,107.10191345214844,97.15717315673828
1.21,63.39851760864258,108.06542205810547,97.09043884277344
1.22,64.47654724121094,109.02796936035156,96.95696258544922
1.23,65.56449127197266,109.99052429199219,96.9283676147461
1.24,66.66187286376953,110.95169067382812,96.80442810058594
1.25,67.76841735839844,111.9124526977539,96.80442810058594
1.26,68.88430786132812,112.87300109863281,96.80442810058594
1.27,70.00904083251953,113.8328628540039,96.80442810058594
1.28,71.142578125,114.79325866699219,96.9283676147461
1.29,72.2859878540039,115.75468444824219,97.004638671875
1.3,73.4388198852539,116.71776580810547,97.18577575683594
1.31,74.6004409790039,117.6854248046875,97.71965026855469
1.32,75.77262878417969,118.65704345703125,98.03425598144531
1.33,76.95442962646484,119.62860107421875,98.03425598144531
1.34,78.14617156982422,120.60314178466797,98.31072998046875
1.35,79.34667205810547,121.5799560546875,98.62533569335938
1.36,80.55619049072266,122.56239318847656,99.25454711914062
1.37,81.77474975585938,123.54956817626953,99.79795837402344
1.38,83.0020751953125,124.5357894897461,99.79795837402344
1.39,84.2405776977539,125.5232162475586,99.79795837402344
1.4,85.48793029785156,126.50739288330078,99.55962371826172
1.41,86.74435424804688,127.49092864990234,99.55962371826172
1.42,88.01190948486328,128.4756622314453,99.55962371826172
1.43,89.2885971069336,129.45980834960938,99.55962371826172
1.44,90.5749740600586,130.4432830810547,99.5024185180664
1.45,91.87010955810547,131.4242401123047,99.34034729003906
1.46,93.17445373535156,132.40122985839844,98.98760986328125
1.47,94.48845672607422,133.37796020507812,98.96854400634766
1.48,95.81159210205078,134.34934997558594,98.48233032226562
1.49,97.14486694335938,135.32115173339844,98.48233032226562
1.5,98.48651123046875,136.29640197753906,98.93994140625
1.51,99.83662414550781,137.26605224609375,98.48233032226562
1.52,101.19512176513672,138.23377990722656,98.39653015136719
1.53,102.56221771240234,139.2006378173828,98.39653015136719
1.54,103.93952178955078,140.1680145263672,98.39653015136719
1.55,105.3248291015625,141.13404846191406,98.39653015136719
1.56,106.71818542480469,142.10269165039062,98.78740692138672
1.57,108.12083435058594,143.07260131835938,98.93994140625
1.58,109.53146362304688,144.0425567626953,99.08294677734375
1.59,110.95001983642578,145.0122528076172,99.19734191894531
1.6,112.3780746459961,145.9818572998047,99.19734191894531
1.61,113.81395721435547,146.95001220703125,99.19734191894531
1.62,115.26127624511719,147.91969299316406,99.19734191894531
1.63,116.716552734375,148.88803100585938,99.19734191894531
1.64,118.18255615234375,149.8467559814453,98.13912963867188
1.65,119.65589904785156,150.79910278320312,97.67198181152344
1.66,121.13739776611328,151.7444305419922,97.07136535644531
1.67,122.62760925292969,152.6888885498047,97.03324127197266
1.68,124.12516021728516,153.6221466064453,96.07035064697266
1.69,125.63114166259766,154.55430603027344,96.0226821899414
1.7,127.1463851928711,155.4837646484375,95.74620819091797
1.71,128.66844177246094,156.40365600585938,94.97399139404297
1.72,130.1989288330078,157.31895446777344,94.56405639648438
1.73,131.7372589111328,158.22515869140625,93.74417114257812
1.74,133.2821502685547,159.12648010253906,93.43909454345703
1.75,134.83563232421875,160.0227508544922,92.95288848876953
1.76,136.39610290527344,160.91700744628906,92.89569091796875
1.77,137.96348571777344,161.80885314941406,92.80035400390625
1.78,139.53880310058594,162.69656372070312,92.4476089477539
1.79,141.12033081054688,163.57901000976562,92.11393737792969
1.8,142.70950317382812,164.45802307128906,91.84700012207031
1.81,144.3058624267578,165.3323516845703,91.48472595214844
1.82,145.91171264648438,166.20291137695312,91.0366439819336
1.83,147.52378845214844,167.06459045410156,90.3216323852539
1.84,149.1417694091797,167.916015625,89.48268127441406
1.85,150.77012634277344,168.76901245117188,89.48268127441406
1.86,152.40423583984375,169.6116943359375,88.64373016357422
1.87,154.0442657470703,170.45225524902344,88.60559844970703
1.88,155.6902618408203,171.2904815673828,88.53886413574219
1.89,157.34185791015625,172.12640380859375,88.50072479248047
1.9,159.0065155029297,172.96343994140625,88.24332427978516
1.91,160.67605590820312,173.7877960205078,87.21369934082031
1.92,162.35107421875,174.60731506347656,86.91815948486328
1.93,164.03567504882812,175.40733337402344,84.83985137939453
1.94,165.72422790527344,176.18316650390625,82.69480895996094
1.95,167.41822814941406,176.95664978027344,82.6090087890625
1.96,169.11727905273438,177.71951293945312,81.7223892211914
1.97,170.82008361816406,178.47860717773438,81.60798645019531
1.98,172.52682495117188,179.22604370117188,80.68323516845703
1.99,174.24066162109375,179.9696044921875,80.30189514160156
2,175.95851135253906,180.70794677734375,80.00635528564453
2.01,177.68724060058594,181.44140625,79.2436752319336
2.02,179.42202758789062,182.16265869140625,78.0901107788086
2.03,181.16258239746094,182.87986755371094,77.76597595214844
2.04,182.9066925048828,183.58843994140625,77.13675689697266
2.05,184.65457153320312,184.2893524169922,76.58381652832031
2.06,186.40802001953125,184.97959899902344,75.59233093261719
2.07,188.1673583984375,185.6684112548828,75.49699401855469
2.08,189.9290008544922,186.35232543945312,75.30632781982422
2.09,191.69656372070312,187.03451538085938,75.1728515625
2.1,193.4661865234375,187.7069549560547,74.50550842285156
2.11,195.2454071044922,188.3762969970703,73.97163391113281
2.12,197.02880859375,189.0441436767578,73.97163391113281
2.13,198.81793212890625,189.71156311035156,73.97163391113281
2.14,200.60934448242188,190.376220703125,73.97163391113281
2.15,202.4047393798828,191.03369140625,73.4091567993164
2.16,204.2058563232422,191.69044494628906,73.37101745605469
2.17,206.01100158691406,192.34222412109375,73.01828002929688
2.18,207.81861877441406,192.98599243164062,72.46533203125
2.19,209.6348876953125,193.6229705810547,71.60731506347656
2.2,211.45191955566406,194.2564239501953,71.60731506347656
2.21,213.26979064941406,194.88511657714844,71.47384643554688
2.22,215.09207153320312,195.51205444335938,71.39757537841797
2.23,216.9153594970703,196.13064575195312,70.88276672363281
2.24,218.74012756347656,196.73548889160156,69.78640747070312
2.25,220.57098388671875,197.339111328125,69.63387298583984
2.26,222.4028778076172,197.93936157226562,69.59574127197266
2.27,224.2359161376953,198.5297393798828,68.89979553222656
2.28,226.0687255859375,199.1131134033203,68.56611633300781
2.29,227.9056854248047,199.6956024169922,68.55658721923828
2.3,229.74411010742188,200.27137756347656,68.1371078491211
2.31,231.58648681640625,200.83804321289062,67.30769348144531
2.32,233.43006896972656,201.39776611328125,66.86915588378906
2.33,235.28282165527344,201.95880126953125,66.73567962646484
2.34,237.1391143798828,202.51112365722656,65.96346282958984
2.35,238.99510192871094,203.06004333496094,65.96346282958984
2.36,240.85723876953125,203.60972595214844,65.96346282958984
2.37,242.72354125976562,204.15887451171875,65.96346282958984
2.38,244.5911407470703,204.7056884765625,65.96346282958984
2.39,246.45872497558594,205.26551818847656,67.58416748046875
2.4,248.32603454589844,205.82664489746094,68.05130767822266
2.41,250.19802856445312,206.38754272460938,68.05130767822266
2.42,252.07737731933594,206.94989013671875,68.05130767822266
2.43,253.9546661376953,207.5077667236328,68.05130767822266
2.44,255.8346405029297,208.05953979492188,67.58416748046875
2.45,257.7129821777344,208.592041015625,66.05879974365234
2.46,259.6025695800781,209.1162109375,64.81944274902344
2.47,261.4893493652344,209.62979125976562,64.21883392333984
2.48,263.3765563964844,210.14083862304688,64.21883392333984
2.49,265.2733154296875,210.6549835205078,64.21883392333984
2.5,267.1709899902344,211.166259765625,64.15209197998047
